MFT1_HAL03_noFilter_UVIR600um2_UVIR600um1_WR4
Integration time [ms]:  34,000
Averaging Nr. [scans]: 20
Smoothing Nr. [pixels]: 0
Data measured with spectrometer [name]: 2201504U1
Wave   ;Sample   ;Dark     ;Reference;Reflectance
[nm]   ;[counts] ;[counts] ;[counts] ;[%]

 177,74;  143,262;  182,178;  124,529; 0,00000
 178,35;  172,956;  185,092;  171,647; 0,00000
 178,95;  135,660;  182,583;  117,477; 0,00000
 179,56;  169,246;  209,174;  154,381; 0,00000
 180,16;  164,599;  151,261;  173,012;61,32270
 180,77;  132,248;  177,319;  118,834; 0,00000
 181,37;  139,636;  165,154;  142,291; 0,00000
 181,97;  163,163;  159,720;  161,407;204,04760
 182,58;  150,654;  121,995;  154,470;88,25077
 183,18;  161,866;  146,759;  165,713;79,70670
 183,79;  190,924;  105,830;  217,701;76,06418
 184,39;  167,776;  125,377;  185,029;71,07849
 184,99;  153,658;  164,636;  149,599; 0,00000
 185,60;  205,739;  167,341;  210,671;88,61564
 186,20;  140,092;   97,180;  150,877;79,91512
 186,80;  157,543;  191,435;  147,726; 0,00000
 187,41;  226,155;  168,397;  282,444;50,64375
 188,01;  184,045;  288,291;  194,149; 0,00000
 188,62;  184,984;  231,319;  221,984; 0,00000
 189,22;  203,928;  168,181;  264,627;37,06353
 189,82;  177,122;  216,355;  225,641;-422,48836
 190,43;  178,719;  170,108;  234,614;13,34923
 191,03;  222,728;  181,081;  285,677;39,81632
 191,63;  205,580;  247,880;  244,579; 0,00000
 192,24;  206,123;  197,150;  277,144;11,21778
 192,84;  240,522;  254,157;  308,566;-25,06054
 193,45;  258,128;  209,683;  358,202;32,61869
 194,05;  246,939;  232,653;  311,992;18,00572
 194,65;  180,193;  219,845;  218,322; 0,00000
 195,26;  226,935;  219,712;  287,262;10,69273
 195,86;  203,667;  158,861;  264,087;42,58045
 196,46;  210,519;  200,908;  256,464;17,29976
 197,07;  167,010;  234,243;  195,273; 0,00000
 197,67;  212,824;  181,442;  268,122;36,20466
 198,27;  188,253;  223,562;  226,838;-1077,97100
 198,88;  176,454;  209,357;  212,740;-972,40922
 199,48;  205,375;  138,684;  276,450;48,40884
 200,08;  177,228;  188,133;  227,602;-27,63023
 200,68;  159,287;  207,509;  206,640; 0,00000
 201,29;  168,112;  239,987;  204,925; 0,00000
 201,89;  150,816;  290,231;  148,580; 0,00000
 202,49;  174,017;  265,223;  190,908; 0,00000
 203,10;  148,908;  188,446;  198,096;-409,73732
 203,70;  192,214;  211,724;  242,856;-62,66933
 204,30;  116,924;  238,804;  127,043; 0,00000
 204,91;  196,230;  204,078;  234,904;-25,45919
 205,51;  154,388;  156,851;  219,418;-3,93637
 206,11;  169,399;  184,421;  215,708;-48,01345
 206,71;  184,178;  161,981;  255,777;23,66446
 207,32;  163,129;  228,536;  197,376; 0,00000
 207,92;  169,022;  193,305;  211,091;-136,52923
 208,52;  145,613;  211,682;  193,878; 0,00000
 209,13;  156,728;  190,883;  213,002;-154,41949
 209,73;  175,402;  181,910;  234,263;-12,43086
 210,33;  158,253;  197,562;  200,288;-1442,25907
 210,93;  182,569;  183,108;  239,314;-0,95887
 211,54;  156,718;  163,464;  201,462;-17,75359
 212,14;  140,738;  230,411;  170,764; 0,00000
 212,74;  179,409;  162,138;  243,674;21,18130
 213,34;  203,505;  192,449;  251,019;18,87701
 213,95;  196,217;  160,261;  275,287;31,25875
 214,55;  173,388;  167,301;  227,418;10,12552
 215,15;  186,733;  194,617;  236,410;-18,86471
 215,75;  168,167;  219,671;  205,033; 0,00000
 216,36;  120,775;  149,294;  171,297;-129,61938
 216,96;  146,165;  216,977;  185,931; 0,00000
 217,56;  127,037;  172,159;  174,090;-2336,78415
 218,16;  139,718;  145,114;  199,962;-9,83813
 218,76;  130,384;  185,069;  161,284; 0,00000
 219,37;  167,599;  175,321;  229,258;-14,31681
 219,97;  146,254;  181,957;  178,290; 0,00000
 220,57;  194,238;  192,151;  258,768; 3,13306
 221,17;  141,435;  137,412;  191,462; 7,44304
 221,78;  151,795;  176,082;  198,303;-109,29338
 222,38;  145,958;  222,448;  182,520; 0,00000
 222,98;  155,797;  170,526;  199,905;-50,13467
 223,58;  104,588;  241,313;  125,588; 0,00000
 224,18;  168,936;  160,706;  224,665;12,86782
 224,79;  147,335;  202,864;  194,437; 0,00000
 225,39;  110,412;  177,937;  150,325; 0,00000
 225,99;  164,197;  175,126;  218,305;-25,31121
 226,59;  172,559;  156,938;  225,524;22,77491
 227,19;  149,631;  168,873;  202,007;-58,06968
 227,79;  159,047;  174,726;  207,305;-48,12630
 228,40;  159,061;  174,135;  198,951;-60,74461
 229,00;  171,291;  156,840;  240,573;17,25877
 229,60;  160,099;  179,921;  223,658;-45,32085
 230,20;  150,875;  181,894;  189,997;-382,84303
 230,80;  168,894;  196,287;  227,300;-88,32812
 231,40;  191,410;  171,083;  250,927;25,45896
 232,01;  158,601;  207,518;  197,185; 0,00000
 232,61;  153,106;  196,901;  203,293;-685,19801
 233,21;  138,570;  191,710;  185,789; 0,00000
 233,81;  144,003;  236,814;  177,162; 0,00000
 234,41;  156,828;  180,983;  205,052;-100,36054
 235,01;  173,530;  192,528;  217,954;-74,71799
 235,61;  111,657;  197,254;  143,717; 0,00000
 236,22;  178,005;  167,649;  229,519;16,73874
 236,82;  137,231;  159,073;  192,507;-65,32499
 237,42;  148,999;  214,273;  182,932; 0,00000
 238,02;  169,246;   90,772;  233,557;54,95969
 238,62;   93,738;  176,061;  125,214; 0,00000
 239,22;  108,598;  218,481;  131,354; 0,00000
 239,82;  127,854;  188,857;  183,390; 0,00000
 240,42;  167,805;  160,649;  219,919;12,07395
 241,02;  160,652;  177,260;  213,563;-45,74777
 241,63;  153,618;  171,014;  206,112;-49,56412
 242,23;  135,780;  155,978;  187,404;-64,27113
 242,83;  115,578;  144,483;  157,602;-220,34026
 243,43;  147,798;  112,169;  208,334;37,05040
 244,03;  136,314;  154,474;  175,506;-86,34579
 244,63;  139,166;  156,269;  181,109;-68,85322
 245,23;  188,138;  186,951;  241,368; 2,18156
 245,83;  166,552;  178,960;  219,663;-30,48390
 246,43;  106,906;  154,251;  135,643; 0,00000
 247,03;  129,018;  141,114;  172,462;-38,58629
 247,63;  122,129;  195,736;  144,876; 0,00000
 248,24;  151,624;  136,592;  204,222;22,22712
 248,84;  172,106;  123,142;  234,547;43,95200
 249,44;   87,926;  220,499;   97,645; 0,00000
 250,04;  158,941;  152,490;  210,223;11,17435
 250,64;  150,997;  175,826;  194,955;-129,79731
 251,24;  165,064;  155,522;  231,082;12,62774
 251,84;   98,490;  142,698;  140,195; 0,00000
 252,44;  145,245;  167,532;  177,803;-216,97921
 253,04;  133,844;  174,937;  175,250; 0,00000
 253,64;  141,605;  140,649;  185,519; 2,13099
 254,24;  113,844;  144,287;  144,200; 0,00000
 254,84;  103,770;  158,510;  133,539; 0,00000
 255,44;  141,128;  130,131;  194,077;17,19625
 256,04;  150,797;  173,176;  184,205;-202,90838
 256,64;  108,715;  173,127;  128,331; 0,00000
 257,24;  138,692;  178,392;  166,447; 0,00000
 257,84;  142,245;  172,482;  176,653;-724,89062
 258,44;  104,511;  137,335;  136,701; 0,00000
 259,04;  146,971;  151,853;  192,317;-12,06474
 259,64;  138,593;  122,385;  177,026;29,66338
 260,24;  166,416;  181,919;  204,159;-69,70842
 260,84;  146,643;  136,935;  198,726;15,71159
 261,44;  134,700;  154,065;  180,511;-73,22685
 262,04;  149,129;   81,674;  211,756;51,85576
 262,64;  156,881;  173,773;  192,457;-90,40155
 263,24;  143,054;  159,555;  185,766;-62,95323
 263,84;  166,736;  128,504;  221,341;41,18176
 264,44;  149,993;  134,935;  191,526;26,60911
 265,04;  136,436;  154,106;  190,265;-48,86772
 265,64;  138,929;  127,926;  189,130;17,97820
 266,24;  152,302;  174,210;  197,663;-93,41089
 266,84;  167,334;   93,857;  232,814;52,87726
 267,44;  128,149;  202,573;  156,732; 0,00000
 268,04;  164,583;  136,965;  222,785;32,18064
 268,64;  162,975;  119,484;  231,350;38,87770
 269,24;  148,159;  132,538;  193,874;25,46694
 269,84;  156,298;  132,519;  207,684;31,63642
 270,44;  126,635;  183,214;  154,537; 0,00000
 271,04;  142,954;  150,755;  180,416;-26,29995
 271,64;  123,975;  169,544;  154,897; 0,00000
 272,24;  150,688;  121,699;  208,543;33,38006
 272,84;  142,236;  152,506;  173,315;-49,35397
 273,44;  135,338;  142,551;  184,718;-17,10561
 274,03;  128,805;  140,749;  168,469;-43,08842
 274,63;  156,429;  140,876;  208,580;22,97259
 275,23;  135,708;   85,036;  186,049;50,16360
 275,83;  163,629;  153,526;  215,430;16,32105
 276,43;  143,510;   93,881;  208,652;43,24160
 277,03;  143,375;  188,494;  180,847; 0,00000
 277,63;  120,166;  144,169;  152,009;-306,16548
 278,23;  138,098;  116,469;  193,284;28,15793
 278,83;  103,554;  166,507;  127,440; 0,00000
 279,43;  122,242;  160,242;  142,997; 0,00000
 280,03;  119,438;  135,501;  165,168;-54,14443
 280,63;  152,672;  116,445;  211,745;38,01347
 281,22;  132,300;  150,465;  166,461;-113,56497
 281,82;  125,150;  149,965;  160,911;-226,71924
 282,42;  152,525;   59,482;  223,126;56,85676
 283,02;  135,793;  140,585;  185,076;-10,77005
 283,62;  130,533;  155,767;  157,010;-2030,74722
 284,22;  150,156;  206,001;  168,093; 0,00000
 284,82;   85,565;  198,329;   76,755; 0,00000
 285,42;  106,345;  144,482;  139,003; 0,00000
 286,01;  144,781;  171,523;  178,257;-397,07378
 286,61;  156,500;  143,063;  214,486;18,81266
 287,21;  139,466;   65,159;  198,763;55,61771
 287,81;  111,199;  180,223;  126,282; 0,00000
 288,41;  132,355;  146,999;  180,669;-43,49305
 289,01;  138,547;  175,576;  170,005; 0,00000
 289,61;   77,549;  149,473;  103,182; 0,00000
 290,20;  141,722;   95,645;  194,845;46,44844
 290,80;   94,201;  159,018;  116,835; 0,00000
 291,40;  101,725;  147,244;  118,797; 0,00000
 292,00;  149,939;  113,593;  200,196;41,96852
 292,60;  170,577;  108,529;  224,403;53,54779
 293,20;  129,580;  165,678;  164,154; 0,00000
 293,79;  141,824;  152,692;  185,722;-32,90253
 294,39;  120,134;  187,469;  138,884; 0,00000
 294,99;  139,045;  168,332;  175,703;-397,30932
 295,59;  115,831;  143,773;  153,307;-293,05128
 296,19;  177,680;  118,518;  242,408;47,75370
 296,78;  100,016;  130,069;  147,559;-171,83101
 297,38;  135,490;  128,896;  172,120;15,25559
 297,98;  143,252;  150,860;  172,013;-35,96585
 298,58;  104,377;  133,489;  144,349;-268,05885
 299,18;  105,342;  142,042;  129,597; 0,00000
 299,77;  139,052;  152,660;  187,913;-38,60055
 300,37;  171,472;  125,295;  223,295;47,11924
 300,97;  115,692;  168,542;  149,797; 0,00000
 301,57;  111,420;  172,610;  142,539; 0,00000
 302,17;  111,799;  180,923;  137,632; 0,00000
 302,76;  122,855;  133,899;  177,369;-25,40602
 303,36;  118,467;  185,521;  147,783; 0,00000
 303,96;  130,148;  128,719;  191,734; 2,26852
 304,56;  117,433;  146,767;  160,760;-209,63971
 305,15;  134,950;  154,015;  177,611;-80,80021
 305,75;  123,469;  134,508;  169,064;-31,94513
 306,35;   96,854;  116,105;  150,316;-56,27048
 306,95;  137,441;  145,590;  186,023;-20,15379
 307,54;  111,274;  114,342;  155,822;-7,39574
 308,14;  151,905;  164,599;  191,019;-48,04739
 308,74;  102,547;  149,126;  139,455; 0,00000
 309,34;  129,546;  129,824;  180,831;-0,54416
 309,93;  129,786;  106,754;  187,941;28,36886
 310,53;  131,967;  119,961;  188,687;17,46885
 311,13;   97,566;  139,619;  136,509; 0,00000
 311,73;  137,576;  142,737;  180,375;-13,71136
 312,32;  111,279;  189,836;  145,426; 0,00000
 312,92;  140,171;  143,853;  199,167;-6,65633
 313,52;  113,558;  155,096;  157,646;-1629,14894
 314,11;  138,176;  177,389;  181,149;-1042,76747
 314,71;  135,188;  209,261;  192,864; 0,00000
 315,31;  136,144;  261,149;  171,671; 0,00000
 315,91;  145,239;  194,503;  186,792; 0,00000
 316,50;  171,993;  168,935;  242,926; 4,13337
 317,10;  135,732;  183,925;  176,682; 0,00000
 317,70;  148,306;   95,842;  223,797;41,00249
 318,29;  157,183;  127,565;  220,085;32,01193
 318,89;  142,333;  148,517;  199,810;-12,05642
 319,49;  133,854;  148,805;  196,116;-31,60108
 320,08;  151,506;  113,692;  223,197;34,53244
 320,68;  156,348;  132,969;  231,534;23,71989
 321,28;  112,037;  157,109;  143,340; 0,00000
 321,87;  159,808;  198,396;  201,696;-1169,45188
 322,47;  161,674;  144,742;  220,372;22,38822
 323,07;  138,931;  161,073;  202,557;-53,37196
 323,66;  134,443;  119,235;  202,676;18,22648
 324,26;  155,235;  171,812;  217,962;-35,91929
 324,86;  102,031;  206,532;  125,553; 0,00000
 325,45;  180,901;  135,758;  244,489;41,51861
 326,05;  174,914;  152,472;  245,332;24,16709
 326,65;  150,414;  120,122;  222,182;29,68016
 327,24;  158,611;  183,985;  202,551;-136,67227
 327,84;  115,657;  200,754;  160,967; 0,00000
 328,44;  123,653;  181,512;  186,538;-1151,30619
 329,03;  120,233;  120,367;  177,010;-0,23666
 329,63;  125,799;  145,771;  194,358;-41,10565
 330,23;  136,175;  163,594;  195,297;-86,48991
 330,82;  140,748;  194,178;  179,880; 0,00000
 331,42;  133,037;  175,859;  181,390;-774,22160
 332,01;  142,208;  176,846;  197,446;-168,14985
 332,61;  154,617;  120,711;  232,537;30,32003
 333,21;  148,678;  181,433;  200,552;-171,32784
 333,80;  151,425;  178,094;  209,347;-85,33544
 334,40;  144,174;  135,692;  213,522;10,89840
 334,99;  122,730;  150,478;  191,005;-68,46919
 335,59;  182,231;  195,423;  236,107;-32,42287
 336,19;  138,321;  122,453;  202,067;19,93131
 336,78;  124,342;  158,592;  181,997;-146,33731
 337,38;  169,714;  154,672;  242,782;17,07130
 337,97;  142,235;  139,712;  190,212; 4,99600
 338,57;  138,026;  138,987;  219,175;-1,19805
 339,16;  124,989;  176,403;  176,492; 0,00000
 339,76;  141,166;  158,719;  199,509;-43,03287
 340,36;  138,435;  145,512;  208,862;-11,17116
 340,95;  166,757;  156,494;  230,571;13,85471
 341,55;  150,899;  162,671;  209,658;-25,05379
 342,14;  129,286;  138,656;  193,715;-17,01809
 342,74;  135,429;  199,136;  171,576; 0,00000
 343,33;  127,377;  146,689;  176,299;-65,22129
 343,93;  144,517;  203,071;  178,233; 0,00000
 344,52;  147,029;  129,776;  222,930;18,52136
 345,12;  147,838;  145,501;  212,218; 3,50306
 345,72;  142,228;  171,033;  194,852;-120,93665
 346,31;  141,089;  171,903;  182,192;-299,48969
 346,91;  104,644;  140,637;  178,250;-95,69345
 347,50;  106,456;  144,451;  161,043;-229,00349
 348,10;   81,706;  124,451;  133,893;-452,73305
 348,69;  141,530;  163,628;  198,404;-63,54336
 349,29;  129,473;  169,750;  187,394;-228,26827
 349,88;  162,003;  122,202;  234,692;35,38181
 350,48;   96,951;  154,118;  140,685; 0,00000
 351,07;  132,823;  132,497;  198,119; 0,49553
 351,67;  117,100;  126,315;  180,311;-17,06636
 352,26;  134,915;  207,477;  177,581; 0,00000
 352,86;  107,036;  113,956;  170,765;-12,18110
 353,45;  148,228;  130,631;  216,777;20,42616
 354,05;  137,385;  161,612;  203,912;-57,27336
 354,64;  133,007;  130,694;  198,821; 3,39543
 355,24;  100,817;  210,823;  123,658; 0,00000
 355,83;   97,453;  157,062;  142,288; 0,00000
 356,43;  138,755;  146,349;  206,919;-12,53742
 357,02;  140,421;  138,203;  220,317; 2,70125
 357,62;  150,556;  181,851;  208,743;-116,37606
 358,21;  129,647;  145,826;  200,955;-29,34771
 358,80;  149,379;  122,326;  240,480;22,89670
 359,40;  138,344;  144,537;  223,350;-7,85819
 359,99;  171,162;  137,628;  279,129;23,69895
 360,59;  182,846;  138,124;  275,781;32,48833
 361,18;  146,816;  124,419;  250,859;17,71350
 361,78;  176,830;  199,730;  265,079;-35,04238
 362,37;  150,040;  139,698;  270,395; 7,91341
 362,97;  192,939;  209,305;  302,867;-17,49236
 363,56;  156,077;  228,101;  290,170;-116,03866
 364,15;  222,009;  261,753;  390,469;-30,87656
 364,75;  222,925;  241,906;  395,717;-12,34060
 365,34;  279,051;  254,477;  495,981;10,17504
 365,94;  284,205;  283,071;  533,985; 0,45197
 366,53;  366,805;  312,771;  690,485;14,30553
 367,13;  335,453;  371,988;  688,253;-11,55198
 367,72;  441,743;  385,519;  867,513;11,66493
 368,31;  471,437;  455,245;  974,551; 3,11818
 368,91;  586,189;  474,589; 1173,104;15,97674
 369,50;  549,473;  572,507; 1168,773;-3,86306
 370,10;  685,615;  567,674; 1395,413;14,24856
 370,69;  630,888;  633,171; 1349,967;-0,31841
 371,28;  675,578;  745,263; 1379,498;-10,98727
 371,88;  700,125;  755,474; 1409,292;-8,46552
 372,47;  653,634;  786,501; 1320,704;-24,87202
 373,07;  600,802;  739,192; 1228,683;-28,27206
 373,66;  543,435;  814,853; 1039,579;-120,77781
 374,25;  471,518;  784,797;  902,706;-265,69613
 374,85;  415,919;  734,288;  808,560;-428,65084
 375,44;  314,938;  699,581;  630,413; 0,00000
 376,03;  347,986;  636,024;  651,090;-1911,81227
 376,63;  326,904;  590,514;  643,819;-494,53350
 377,22;  338,960;  542,291;  695,455;-132,75277
 377,81;  429,804;  498,950;  856,274;-19,35128
 378,41;  480,013;  440,566;  954,916; 7,66934
 379,00;  517,692;  457,728; 1015,059;10,75915
 379,59;  491,974;  449,286; 1004,306; 7,69125
 380,19;  483,787;  466,445;  973,701; 3,41895
 380,78;  453,255;  440,893;  934,802; 2,50287
 381,38;  446,817;  467,407;  919,595;-4,55346
 381,97;  421,060;  469,129;  876,385;-11,80302
 382,56;  444,235;  506,158;  911,421;-15,27967
 383,15;  439,785;  479,508;  944,821;-8,53680
 383,75;  393,164;  529,680;  912,161;-35,69232
 384,34;  462,517;  460,707; 1003,945; 0,33315
 384,93;  439,366;  485,115;  984,317;-9,16440
 385,53;  469,855;  478,193; 1057,452;-1,43944
 386,12;  437,674;  444,186; 1033,206;-1,10556
 386,71;  462,255;  467,843; 1093,352;-0,89336
 387,31;  469,207;  493,240; 1112,779;-3,87911
 387,90;  462,767;  460,357; 1146,745; 0,35108
 388,49;  456,297;  486,872; 1130,714;-4,74884
 389,08;  456,317;  450,607; 1216,945; 0,74507
 389,68;  506,412;  408,364; 1320,991;10,74357
 390,27;  501,513;  460,466; 1342,216; 4,65520
 390,86;  501,849;  426,957; 1383,970; 7,82564
 391,46;  529,857;  377,628; 1494,809;13,62619
 392,05;  504,215;  425,710; 1484,118; 7,41721
 392,64;  533,381;  405,406; 1577,345;10,91993
 393,23;  589,108;  365,070; 1696,887;16,82197
 393,83;  527,905;  443,443; 1648,552; 7,00865
 394,42;  562,568;  435,250; 1787,024; 9,41861
 395,01;  585,121;  390,537; 1874,654;13,11110
 395,60;  553,831;  381,506; 1898,595;11,35892
 396,20;  565,817;  454,557; 1933,545; 7,52269
 396,79;  614,232;  339,849; 2099,523;15,59286
 397,38;  634,562;  400,014; 2172,641;13,23170
 397,97;  633,237;  422,742; 2226,527;11,66960
 398,57;  673,420;  359,734; 2373,480;15,57723
 399,16;  661,437;  418,042; 2379,577;12,40837
 399,75;  685,393;  404,621; 2503,038;13,38022
 400,34;  747,481;  300,244; 2715,074;18,52043
 400,93;  744,351;  365,292; 2738,026;15,97564
 401,53;  720,038;  376,535; 2784,255;14,26674
 402,12;  791,099;  350,595; 2958,249;16,89274
 402,71;  765,488;  383,285; 2998,055;14,61708
 403,30;  799,801;  448,851; 3080,073;13,33789
 403,90;  807,077;  340,613; 3216,690;16,21875
 404,49;  846,958;  354,920; 3332,387;16,52539
 405,08;  828,277;  365,015; 3413,365;15,19715
 405,67;  926,072;  312,719; 3598,786;18,66526
 406,26;  860,182;  350,349; 3578,723;15,79227
 406,85;  888,872;  385,981; 3688,307;15,22839
 407,45;  917,089;  351,927; 3808,983;16,34807
 408,04;  929,664;  417,108; 3895,544;14,73524
 408,63;  953,920;  355,184; 3978,980;16,52234
 409,22;  988,389;  360,777; 4120,934;16,69111
 409,81; 1020,694;  363,761; 4271,341;16,81176
 410,40; 1002,951;  357,842; 4279,626;16,44939
 411,00; 1009,145;  385,513; 4388,216;15,58026
 411,59; 1007,595;  370,663; 4445,616;15,63040
 412,18; 1056,408;  337,320; 4568,437;16,99523
 412,77; 1069,070;  352,234; 4655,980;16,65609
 413,36; 1061,610;  380,867; 4724,914;15,67072
 413,95; 1158,441;  306,962; 4937,440;18,38858
 414,55; 1146,716;  293,191; 4978,126;18,21850
 415,14; 1136,653;  271,726; 5046,733;18,11363
 415,73; 1193,803;  297,076; 5146,883;18,48995
 416,32; 1156,916;  323,943; 5164,950;17,20661
 416,91; 1186,749;  344,295; 5291,149;17,03010
 417,50; 1182,777;  325,713; 5375,090;16,97366
 418,09; 1238,369;  298,780; 5485,181;18,11640
 418,68; 1212,647;  291,448; 5557,072;17,49458
 419,27; 1240,971;  309,277; 5592,658;17,63443
 419,87; 1273,060;  371,365; 5680,540;16,98371
 420,46; 1266,166;  284,541; 5774,476;17,88044
 421,05; 1266,276;  307,561; 5821,266;17,38786
 421,64; 1318,712;  323,602; 5887,771;17,88426
 422,23; 1319,084;  287,784; 5968,379;18,15480
 422,82; 1336,016;  302,991; 5992,176;18,15770
 423,41; 1366,622;  324,669; 6093,486;18,06181
 424,00; 1332,233;  341,691; 6096,901;17,21123
 424,59; 1375,012;  292,049; 6212,446;18,29205
 425,18; 1378,248;  275,390; 6256,550;18,43886
 425,77; 1380,421;  344,927; 6274,158;17,46423
 426,36; 1372,744;  282,601; 6307,645;18,09353
 426,96; 1413,722;  326,969; 6417,286;17,84395
 427,55; 1427,948;  276,140; 6453,650;18,64517
 428,14; 1413,050;  315,337; 6470,078;17,83524
 428,73; 1392,989;  365,327; 6485,733;16,79075
 429,32; 1464,602;  337,132; 6617,980;17,95092
 429,91; 1409,269;  274,630; 6565,081;18,03748
 430,50; 1461,740;  347,220; 6644,562;17,69827
 431,09; 1477,062;  303,799; 6742,546;18,22190
 431,68; 1484,944;  301,401; 6797,345;18,21973
 432,27; 1492,648;  291,490; 6851,300;18,31086
 432,86; 1474,005;  302,321; 6895,135;17,77214
 433,45; 1526,217;  307,983; 7018,454;18,15422
 434,04; 1504,607;  342,768; 7010,613;17,42451
 434,63; 1502,896;  282,396; 7106,048;17,88632
 435,22; 1558,854;  278,719; 7209,761;18,46960
 435,81; 1551,786;  334,078; 7225,932;17,66880
 436,40; 1579,670;  285,372; 7298,559;18,45520
 436,99; 1601,204;  291,119; 7405,711;18,41407
 437,58; 1635,248;  243,281; 7557,654;19,03058
 438,17; 1609,348;  296,140; 7541,601;18,12455
 438,76; 1652,841;  328,962; 7676,390;18,01827
 439,35; 1669,240;  296,810; 7748,865;18,41681
 439,94; 1676,072;  351,069; 7860,786;17,64385
 440,53; 1693,618;  259,126; 7906,732;18,75740
 441,12; 1712,823;  289,662; 8002,615;18,45158
 441,71; 1736,475;  226,296; 8153,321;19,05102
 442,30; 1743,462;  331,949; 8230,596;17,87031
 442,89; 1739,679;  307,898; 8276,347;17,96813
 443,48; 1776,649;  279,283; 8476,979;18,26569
 444,07; 1790,495;  284,444; 8590,224;18,13258
 444,66; 1837,442;  317,154; 8718,618;18,09551
 445,25; 1801,310;  302,655; 8791,743;17,65390
 445,84; 1876,361;  297,347; 8995,972;18,15246
 446,43; 1898,121;  277,015; 9088,388;18,39789
 447,02; 1939,797;  316,638; 9237,626;18,19483
 447,60; 1922,454;  305,569; 9301,062;17,97440
 448,19; 1966,862;  270,840; 9534,700;18,30795
 448,78; 2019,718;  310,576; 9682,282;18,23726
 449,37; 2033,147;  329,638; 9829,176;17,93255
 449,96; 2084,136;  335,918;10077,136;17,94661
 450,55; 2099,861;  341,197;10192,521;17,85206
 451,14; 2130,164;  330,186;10400,727;17,87370
 451,73; 2148,599;  345,133;10561,879;17,65206
 452,32; 2215,271;  368,665;10829,537;17,65251
 452,91; 2209,449;  339,533;10968,479;17,59268
 453,50; 2265,461;  377,797;11202,271;17,43885
 454,09; 2352,238;  383,463;11482,438;17,73835
 454,67; 2368,237;  395,118;11684,436;17,47775
 455,26; 2408,188;  377,363;11958,589;17,53549
 455,85; 2447,149;  386,133;12188,729;17,46240
 456,44; 2495,638;  342,161;12474,014;17,75060
 457,03; 2504,242;  357,752;12607,294;17,52302
 457,62; 2558,174;  372,704;12911,043;17,43030
 458,21; 2655,001;  344,318;13237,635;17,92156
 458,80; 2627,621;  377,315;13401,737;17,27759
 459,38; 2698,359;  369,800;13735,944;17,42132
 459,97; 2776,287;  349,059;14041,890;17,72627
 460,56; 2788,700;  339,975;14288,606;17,55531
 461,15; 2867,917;  332,971;14554,434;17,82479
 461,74; 2858,256;  404,313;14786,014;17,06295
 462,33; 2942,734;  313,119;15169,034;17,70079
 462,92; 2992,063;  329,682;15445,278;17,61347
 463,50; 3036,619;  324,268;15658,460;17,68825
 464,09; 3067,258;  307,498;15911,970;17,68570
 464,68; 3060,624;  320,604;16184,643;17,27190
 465,27; 3129,959;  352,300;16509,594;17,19136
 465,86; 3219,698;  313,378;16818,180;17,60893
 466,45; 3245,689;  274,753;17111,143;17,64592
 467,03; 3283,508;  294,048;17297,820;17,58116
 467,62; 3294,919;  306,368;17559,260;17,32203
 468,21; 3312,076;  319,499;17763,895;17,15495
 468,80; 3401,045;  335,141;18115,898;17,24282
 469,39; 3414,750;  344,275;18445,758;16,96256
 469,97; 3464,011;  270,985;18684,750;17,34043
 470,56; 3471,136;  341,318;18897,887;16,86636
 471,15; 3504,037;  338,618;19180,387;16,80001
 471,74; 3571,927;  302,791;19547,273;16,98739
 472,33; 3600,760;  324,943;19688,223;16,91768
 472,91; 3604,904;  315,567;19889,938;16,80431
 473,50; 3694,934;  336,472;20230,658;16,88163
 474,09; 3713,544;  314,589;20532,775;16,81138
 474,68; 3691,317;  360,483;20652,354;16,41462
 475,26; 3788,668;  277,216;21091,736;16,87021
 475,85; 3783,180;  222,578;21303,705;16,89000
 476,44; 3823,602;  293,020;21508,709;16,64137
 477,03; 3861,210;  271,393;21751,773;16,71207
 477,61; 3905,563;  270,482;22047,027;16,69264
 478,20; 3888,498;  249,828;22184,279;16,58883
 478,79; 3935,515;  275,527;22419,531;16,52812
 479,38; 3968,344;  268,289;22639,875;16,53908
 479,96; 3983,494;  221,987;22951,250;16,54918
 480,55; 4028,872;  276,407;23096,016;16,44404
 481,14; 4086,644;  253,137;23324,250;16,61605
 481,73; 4073,835;  239,464;23488,236;16,49279
 482,31; 4132,327;  249,389;23849,049;16,45336
 482,90; 4100,330;  274,788;23920,400;16,17865
 483,49; 4134,419;  301,870;24093,686;16,10869
 484,07; 4140,331;  319,382;24260,854;15,95954
 484,66; 4141,392;  291,252;24414,244;15,96046
 485,25; 4128,921;  303,715;24552,387;15,77491
 485,84; 4203,694;  239,837;24853,100;16,10456
 486,42; 4216,009;  243,241;24888,949;16,11951
 487,01; 4200,447;  296,336;25076,252;15,75514
 487,60; 4229,391;  230,548;25310,795;15,94419
 488,18; 4277,693;  283,245;25502,973;15,83859
 488,77; 4224,916;  283,929;25563,805;15,58942
 489,36; 4263,879;  305,038;25742,500;15,56304
 489,94; 4275,637;  238,659;25824,289;15,77830
 490,53; 4292,361;  246,935;25962,801;15,73124
 491,12; 4266,537;  229,159;26125,689;15,59042
 491,70; 4218,526;  276,349;26109,346;15,26024
 492,29; 4276,070;  252,610;26230,389;15,48808
 492,88; 4284,751;  272,470;26358,859;15,38075
 493,46; 4245,905;  292,209;26405,814;15,14037
 494,05; 4275,327;  254,641;26527,373;15,30365
 494,64; 4282,199;  276,773;26582,932;15,22619
 495,22; 4236,534;  286,222;26660,008;14,97818
 495,81; 4262,391;  261,800;26732,420;15,11333
 496,40; 4249,996;  281,234;26905,727;14,90643
 496,98; 4232,126;  204,889;26875,199;15,10008
 497,57; 4226,187;  311,168;26903,035;14,72261
 498,15; 4217,615;  246,977;27027,730;14,82646
 498,74; 4205,436;  292,916;27005,012;14,64700
 499,33; 4177,063;  247,432;27064,078;14,65370
 499,91; 4169,619;  294,318;26995,861;14,51340
 500,50; 4226,502;  232,260;27153,264;14,83690
 501,08; 4161,195;  227,732;27185,104;14,59142
 501,67; 4146,727;  229,889;27217,898;14,51325
 502,26; 4138,201;  248,118;27197,186;14,43495
 502,84; 4114,295;  230,132;27263,752;14,36790
 503,43; 4087,505;  286,311;27233,639;14,10602
 504,01; 4110,043;  194,835;27339,625;14,42342
 504,60; 4109,101;  250,618;27354,035;14,23615
 505,19; 4089,111;  220,135;27469,650;14,19833
 505,77; 4123,412;  195,478;27444,580;14,41491
 506,36; 4065,727;  214,589;27521,100;14,10337
 506,94; 4068,925;  248,794;27472,547;14,03234
 507,53; 4058,282;  276,775;27560,781;13,85979
 508,11; 4056,994;  211,387;27667,051;14,00661
 508,70; 4046,766;  213,419;27674,809;13,95904
 509,29; 4029,644;  260,889;27705,424;13,73226
 509,87; 4009,785;  237,164;27841,986;13,66653
 510,46; 4038,035;  244,914;27864,688;13,73335
 511,04; 4030,625;  292,096;27941,721;13,52108
 511,63; 4059,753;  254,262;28095,988;13,66830
 512,21; 4059,439;  248,053;28203,342;13,63386
 512,80; 4081,754;  229,955;28297,217;13,72346
 513,38; 4043,235;  214,512;28362,063;13,60233
 513,97; 4037,243;  304,547;28430,797;13,27122
 514,55; 4009,214;  195,924;28498,656;13,47322
 515,14; 4018,963;  230,632;28595,479;13,35573
 515,72; 4066,202;  214,660;28722,414;13,51051
 516,31; 4054,563;  247,932;28771,928;13,34536
 516,89; 4024,129;  241,536;28804,326;13,24308
 517,48; 4068,945;  230,932;28944,752;13,36643
 518,06; 4007,616;  225,571;28860,584;13,20777
 518,65; 4069,326;  229,039;29105,699;13,29893
 519,23; 4035,994;  243,439;29040,475;13,16995
 519,82; 4085,389;  298,405;29207,217;13,09976
 520,40; 4017,230;  209,278;29279,404;13,09919
 520,99; 4090,328;  255,583;29523,102;13,10239
 521,57; 4034,648;  252,078;29486,279;12,93885
 522,16; 4025,875;  256,346;29483,371;12,89741
 522,74; 4079,653;  246,462;29534,188;13,08804
 523,33; 4095,485;  212,512;29838,662;13,10657
 523,91; 4096,107;  241,296;29960,646;12,97071
 524,50; 4096,631;  212,073;30026,156;13,02927
 525,08; 4125,385;  251,664;30194,287;12,93715
 525,66; 4158,953;  259,462;30368,787;12,95111
 526,25; 4147,926;  219,389;30294,799;13,06229
 526,83; 4182,202;  208,460;30681,264;13,04029
 527,42; 4184,021;  236,755;30794,691;12,91732
 528,00; 4168,309;  212,841;30893,398;12,89243
 528,59; 4185,157;  262,104;31040,867;12,74597
 529,17; 4240,589;  239,053;31469,441;12,81296
 529,75; 4239,368;  225,164;31508,211;12,83188
 530,34; 4298,246;  231,732;31855,104;12,85920
 530,92; 4319,360;  268,093;31901,773;12,80682
 531,51; 4366,604;  248,557;32333,689;12,83475
 532,09; 4368,795;  203,332;32537,902;12,88238
 532,67; 4401,299;  265,423;32866,883;12,68617
 533,26; 4426,017;  265,371;32961,832;12,72506
 533,84; 4485,934;  277,119;33330,434;12,73341
 534,43; 4460,768;  254,416;33503,586;12,65100
 535,01; 4557,043;  215,735;33884,176;12,89430
 535,59; 4516,948;  246,478;34137,930;12,60043
 536,18; 4608,075;  244,294;34483,297;12,74506
 536,76; 4663,990;  206,446;34932,922;12,83615
 537,35; 4706,264;  247,124;35101,105;12,79377
 537,93; 4713,668;  234,416;35486,887;12,70621
 538,51; 4828,326;  266,587;35892,625;12,80451
 539,10; 4826,989;  165,893;36113,945;12,96620
 539,68; 4863,992;  231,642;36567,398;12,74874
 540,26; 4913,951;  266,918;36919,934;12,67845
 540,85; 4935,165;  266,877;37241,230;12,62575
 541,43; 4995,139;  250,853;37475,191;12,74512
 542,01; 5008,766;  196,469;37913,109;12,75908
 542,60; 5089,706;  254,551;38248,543;12,72610
 543,18; 5101,369;  294,068;38561,309;12,56244
 543,76; 5151,880;  238,278;38716,004;12,76999
 544,35; 5223,890;  248,696;39314,969;12,73527
 544,93; 5271,590;  229,346;39576,871;12,81464
 545,51; 5306,584;  270,869;39872,535;12,71592
 546,10; 5323,014;  238,874;39994,805;12,78838
 546,68; 5373,130;  269,180;40339,680;12,73743
 547,26; 5376,120;  240,610;40650,938;12,70841
 547,85; 5487,440;  246,696;41052,969;12,84299
 548,43; 5536,458;  328,798;41235,719;12,73051
 549,01; 5553,437;  231,856;41706,066;12,83106
 549,59; 5632,707;  203,192;41956,246;13,00387
 550,18; 5652,192;  231,192;42410,297;12,85233
 550,76; 5696,364;  217,474;42530,957;12,94833
 551,34; 5802,466;  253,619;42977,859;12,98758
 551,93; 5823,784;  273,369;43330,633;12,89077
 552,51; 5883,875;  265,844;43474,547;13,00208
 553,09; 5974,468;  282,666;43997,887;13,02018
 553,67; 6028,936;  273,164;44236,586;13,09218
 554,26; 6125,211;  260,085;44648,449;13,21321
 554,84; 6144,928;  257,383;44727,902;13,23921
 555,42; 6214,454;  259,607;45417,641;13,18668
 556,00; 6348,239;  271,953;45678,191;13,38205
 556,59; 6393,955;  307,859;46160,516;13,27316
 557,17; 6470,928;  245,183;46350,852;13,50321
 557,75; 6521,970;  254,110;46761,438;13,47714
 558,33; 6639,082;  245,423;47094,809;13,64726
 558,92; 6697,682;  270,675;47420,383;13,63107
 559,50; 6758,070;  276,313;47771,965;13,64705
 560,08; 6908,466;  254,419;48238,457;13,86721
 560,66; 6971,694;  278,189;48615,773;13,84741
 561,24; 7123,617;  277,221;49095,582;14,02422
 561,83; 7193,361;  253,785;49428,750;14,11201
 562,41; 7285,560;  276,793;49628,973;14,20154
 562,99; 7398,062;  263,887;50149,277;14,30113
 563,57; 7518,585;  272,014;50544,035;14,41472
 564,15; 7645,355;  316,109;50807,664;14,51579
 564,74; 7748,176;  222,587;51219,926;14,75683
 565,32; 7864,537;  276,159;51597,039;14,78614
 565,90; 7986,226;  290,946;52063,473;14,86363
 566,48; 8182,295;  215,129;52338,430;15,28523
 567,06; 8278,763;  252,630;52681,152;15,30871
 567,65; 8457,276;  259,039;53027,148;15,53635
 568,23; 8581,614;  256,824;53234,207;15,71386
 568,81; 8733,110;  284,293;53776,473;15,79449
 569,39; 8862,974;  235,100;53901,695;16,07681
 569,97; 9074,825;  291,094;54358,648;16,24584
 570,55; 9170,657;  255,346;54623,395;16,39807
 571,13; 9429,137;  256,406;54925,715;16,77857
 571,72; 9573,584;  295,469;55286,684;16,87199
 572,30; 9721,402;  287,062;55538,887;17,07516
 572,88; 9866,918;  203,764;55665,113;17,42322
 573,46;10139,935;  204,410;56136,188;17,76365
 574,04;10330,789;  211,543;56441,996;17,99602
 574,62;10478,903;  235,605;56624,867;18,16534
 575,20;10680,623;  241,700;56801,145;18,45655
 575,79;10878,202;  292,562;57240,137;18,58839
 576,37;11133,657;  242,296;57437,844;19,04232
 576,95;11350,763;  237,580;57430,855;19,43093
 577,53;11552,184;  220,467;57700,660;19,71412
 578,11;11795,513;  243,730;57960,055;20,01476
 578,69;12063,729;  234,533;58217,652;20,40110
 579,27;12300,870;  277,660;58477,238;20,65859
 579,85;12541,667;  239,421;58919,535;20,96493
 580,43;12861,282;  250,475;59051,082;21,44673
 581,01;13140,855;  263,851;59426,742;21,76534
 581,59;13401,146;  237,534;59379,078;22,25781
 582,18;13783,979;  310,486;59997,977;22,57339
 582,76;14085,068;  255,066;60259,984;23,04811
 583,34;14314,348;  262,428;60271,828;23,41620
 583,92;14678,708;  251,246;60534,945;23,93261
 584,50;15114,323;  236,950;61268,695;24,37645
 585,08;15511,713;  210,980;61691,953;24,88694
 585,66;15925,063;  315,882;62311,828;25,17775
 586,24;16232,972;  259,155;62072,590;25,84198
 586,82;16541,867;  231,321;62375,684;26,24622
 587,40;16878,275;  248,344;62509,996;26,70975
 587,98;17208,648;  212,271;62587,656;27,24853
 588,56;17601,139;  261,203;62889,543;27,68704
 589,14;17900,391;  258,648;63057,043;28,09267
 589,72;18203,031;  254,773;63069,355;28,57339
 590,30;18547,102;  291,420;63010,508;29,10706
 590,88;18909,088;  245,201;63229,168;29,63276
 591,46;19244,742;  213,785;63267,277;30,18224
 592,04;19442,965;  221,824;63131,656;30,55348
 592,62;19758,107;  219,994;63097,172;31,07346
 593,20;20047,973;  227,847;63245,418;31,45174
 593,78;20373,512;  262,580;63491,855;31,80636
 594,36;20643,615;  239,869;63339,309;32,33586
 594,94;20962,861;  240,485;63386,250;32,81673
 595,52;21202,158;  212,738;63208,625;33,31871
 596,10;21545,566;  247,469;63514,410;33,66386
 596,68;21699,598;  263,428;63221,781;34,04817
 597,26;22002,410;  243,591;63188,148;34,56823
 597,84;22152,055;  268,659;63060,316;34,85080
 598,42;22520,158;  268,496;63376,047;35,25990
 599,00;22586,469;  258,416;62814,734;35,69272
 599,58;22942,180;  227,326;63216,828;36,06133
 600,16;23040,990;  234,198;62906,695;36,39043
 600,74;23134,283;  249,669;62615,086;36,69440
 601,32;23614,955;  273,407;62948,691;37,24203
 601,90;23719,729;  264,636;62822,176;37,49363
 602,48;23840,744;  258,887;62712,051;37,75927
 603,06;24047,295;  203,879;62718,277;38,14068
 603,64;24283,844;  171,377;62862,902;38,46208
 604,21;24439,535;  227,712;62574,563;38,83408
 604,79;24540,572;  222,447;62374,168;39,12703
 605,37;24731,566;  261,221;62572,234;39,27130
 605,95;24763,111;  252,287;62218,574;39,55510
 606,53;24947,574;  255,244;62202,848;39,86002
 607,11;25139,160;  300,793;62404,672;39,99487
 607,69;25166,752;  252,712;62059,688;40,30943
 608,27;25372,549;  266,323;62195,984;40,53990
 608,85;25399,994;  249,939;61945,125;40,76502
 609,43;25446,926;  283,046;61831,270;40,88482
 610,00;25576,635;  207,862;61678,613;41,26966
 610,58;25557,213;  292,090;61416,949;41,33363
 611,16;25734,779;  218,678;61508,605;41,63180
 611,74;25723,230;  225,278;61286,953;41,75770
 612,32;25697,725;  270,346;60720,371;42,06347
 612,90;25751,201;  301,370;60816,359;42,05542
 613,48;25896,932;  246,175;60966,883;42,24384
 614,06;25950,334;  210,162;60863,262;42,43835
 614,63;26002,006;  247,101;60824,441;42,51574
 615,21;26004,863;  232,982;60491,879;42,76859
 615,79;26116,457;  177,294;60413,723;43,06225
 616,37;26141,801;  296,875;60354,656;43,03343
 616,95;26148,525;  283,996;60347,121;43,06224
 617,53;26253,277;  249,739;60261,648;43,33063
 618,10;26155,895;  206,482;60013,055;43,38890
 618,68;26311,338;  305,861;60114,164;43,48138
 619,26;26204,373;  234,850;59830,445;43,57625
 619,84;26263,383;  255,775;59690,781;43,75806
 620,42;26333,857;  235,546;59595,945;43,96586
 620,99;26251,426;  258,596;59432,672;43,92604
 621,57;26271,086;  236,464;59310,586;44,07111
 622,15;26129,000;  245,623;59092,531;43,98426
 622,73;26219,717;  266,921;59139,234;44,08319
 623,31;26231,088;  230,203;59032,094;44,21777
 623,88;26284,148;  276,628;59030,328;44,26533
 624,46;26102,932;  204,873;58487,605;44,43522
 625,04;26222,031;  293,182;58639,504;44,43956
 625,62;26200,461;  266,937;58343,824;44,65378
 626,20;26204,691;  273,800;58335,770;44,66072
 626,77;26126,486;  296,866;58017,063;44,74971
 627,35;26202,111;  216,985;58067,500;44,91771
 627,93;26222,906;  298,854;58036,117;44,90004
 628,51;26160,539;  216,853;57798,492;45,05548
 629,08;26092,756;  256,459;57695,965;44,98001
 629,66;26424,619;  278,510;58050,887;45,25711
 630,24;26125,477;  230,641;57612,273;45,12739
 630,82;26069,996;  234,782;57375,504;45,21331
 631,39;26150,188;  263,311;57351,063;45,34576
 631,97;26171,654;  257,307;57418,539;45,33553
 632,55;26096,975;  256,496;57023,270;45,52043
 633,13;26208,420;  258,360;57270,090;45,51705
 633,70;26058,410;  265,943;56891,273;45,54935
 634,28;26113,061;  228,085;57072,352;45,53665
 634,86;26013,459;  252,398;56648,020;45,67919
 635,43;26105,297;  263,778;56798,379;45,70921
 636,01;26153,191;  266,542;56895,047;45,71311
 636,59;26130,398;  255,923;56729,133;45,81726
 637,17;25995,814;  245,027;56447,980;45,81750
 637,74;26102,082;  231,125;56608,383;45,88900
 638,32;26108,432;  178,115;56488,184;46,04917
 638,90;26030,205;  221,551;56458,844;45,89242
 639,47;26013,412;  218,380;56375,305;45,93384
 640,05;26052,961;  248,391;56471,914;45,89639
 640,63;26010,156;  251,355;56185,898;46,05169
 641,20;26070,752;  253,268;56380,633;45,99803
 641,78;26084,748;  266,432;56218,520;46,14362
 642,36;26130,795;  244,046;56376,055;46,11762
 642,93;26028,689;  247,210;55982,992;46,25660
 643,51;26075,887;  242,574;56003,180;46,32897
 644,09;26092,332;  257,838;56167,063;46,20793
 644,66;25941,428;  243,502;55811,301;46,24607
 645,24;25927,375;  242,066;55747,438;46,27536
 645,81;25961,021;  228,630;55577,820;46,49100
 646,39;25938,367;  238,344;55579,957;46,43888
 646,97;26033,463;  233,807;55738,945;46,48156
 647,54;25996,559;  236,471;55623,230;46,50947
 648,12;26037,506;  209,435;55596,566;46,63190
 648,70;26101,752;  259,549;55748,250;46,57201
 649,27;26182,646;  261,663;55760,039;46,70584
 649,85;26158,943;  238,077;55833,223;46,62433
 650,42;26211,539;  216,891;55832,961;46,73946
 651,00;26198,736;  226,155;55728,195;46,79572
 651,58;26230,682;  244,419;55785,930;46,78710
 652,15;26198,027;  211,682;55699,266;46,83272
 652,73;26255,074;  212,596;55879,602;46,78261
 653,30;26202,070;  227,610;55696,289;46,82726
 653,88;26225,766;  236,474;55665,574;46,88745
 654,46;26271,412;  212,438;55557,660;47,08441
 655,03;26340,559;  222,802;55883,797;46,92291
 655,61;26342,154;  252,566;55771,082;46,99259
 656,18;26361,650;  213,780;55722,469;47,10591
 656,76;26419,047;  220,544;55669,406;47,24804
 657,33;26495,443;  249,858;55924,090;47,14135
 657,91;26432,689;  252,471;55798,328;47,13262
 658,48;26453,285;  214,785;55783,813;47,21785
 659,06;26433,631;  214,849;55795,598;47,17242
 659,64;26476,678;  225,363;55611,434;47,39696
 660,21;26607,322;  219,577;55715,520;47,54896
 660,79;26573,818;  225,541;55903,805;47,32238
 661,36;26582,365;  221,405;55855,594;47,38266
 661,94;26649,662;  208,969;55987,277;47,40318
 662,51;26739,607;  227,233;56240,813;47,33205
 663,09;26914,953;  217,047;56361,449;47,55221
 663,66;27021,250;  218,810;56523,785;47,60226
 664,24;27115,695;  246,274;56584,922;47,69270
 664,81;27122,141;  224,738;56516,309;47,78229
 665,39;27121,088;  220,602;56498,293;47,79955
 665,96;27314,133;  215,866;56759,828;47,92424
 666,54;27387,279;  211,780;57093,363;47,77557
 667,11;27586,977;  217,244;57402,402;47,86160
 667,69;27605,521;  216,808;57374,738;47,91761
 668,26;27962,518;  238,622;58021,723;47,97925
 668,84;27996,363;  217,785;58160,707;47,94128
 669,41;28185,910;  241,099;58392,793;48,05502
 669,99;28318,105;  264,863;58838,582;47,89391
 670,56;28470,953;  229,477;59134,816;47,94383
 671,13;28488,248;  196,441;59106,254;48,02563
 671,71;28834,994;  236,705;59632,938;48,14832
 672,28;28993,191;  204,119;59826,523;48,28566
 672,86;29156,836;  198,033;60181,910;48,27764
 673,43;29196,482;  234,247;60119,695;48,36273
 674,01;29354,279;  232,711;60465,332;48,34850
 674,58;29463,025;  245,274;60646,117;48,37308
 675,16;29384,672;  216,088;60383,453;48,47908
 675,73;29483,768;  202,052;60332,488;48,69699
 676,30;29567,664;  223,066;60602,227;48,60054
 676,88;29639,160;  213,180;60744,211;48,61305
 677,45;29810,055;  228,644;61022,848;48,65827
 678,03;29747,801;  215,758;60832,082;48,71962
 678,60;29961,998;  201,072;61187,668;48,79913
 679,17;30079,693;  222,236;61323,305;48,86569
 679,75;30086,141;  202,350;61434,340;48,80421
 680,32;30279,436;  194,063;61845,227;48,79936
 680,90;30483,383;  213,977;61996,762;48,99327
 681,47;30404,527;  209,091;61918,801;48,93142
 682,04;30366,924;  194,255;61629,637;49,11285
 682,62;30513,721;  188,019;61961,223;49,09200
 683,19;30549,316;  210,683;62099,355;49,02130
 683,76;30459,162;  204,747;61959,594;48,99116
 684,34;30564,309;  208,061;62037,879;49,09645
 684,91;30460,955;  194,075;61674,113;49,23042
 685,49;30511,000;  217,138;61845,750;49,15552
 686,06;30516,496;  181,102;61767,035;49,25702
 686,63;30514,293;  209,466;61814,371;49,19223
 687,21;30513,988;  180,630;61673,660;49,32812
 687,78;30721,186;  223,144;61946,395;49,41095
 688,35;30476,480;  220,358;61718,980;49,19805
 688,93;30431,326;  200,022;61574,918;49,25679
 689,50;30449,873;  188,536;61539,953;49,32459
 690,07;30563,369;  189,650;61718,840;49,36473
 690,65;30576,516;  176,764;61746,426;49,37456
 691,22;30706,611;  191,077;61853,910;49,48773
 691,79;30580,508;  177,391;61589,695;49,50656
 692,36;30643,703;  189,905;61784,281;49,44250
 692,94;30528,799;  170,819;61507,168;49,49427
 693,51;30659,746;  186,783;61663,855;49,56801
 694,08;30737,541;  209,797;61789,141;49,57465
 694,66;30871,537;  183,561;62004,477;49,64012
 695,23;30927,984;  192,525;62162,113;49,59765
 695,80;30802,029;  152,689;61882,496;49,65080
 696,37;30868,076;  217,203;62048,484;49,57179
 696,95;30994,922;  196,466;62185,871;49,68342
 697,52;30809,869;  167,330;61814,855;49,70603
 698,09;31047,264;  206,144;62158,641;49,78188
 698,66;30960,510;  186,208;61975,828;49,80497
 699,24;31022,256;  174,372;62010,512;49,88650
 699,81;31086,604;  141,186;62041,250;49,99255
 700,38;31203,100;  195,450;62320,387;49,91176
 700,95;31321,795;  149,214;62445,020;50,03961
 701,53;31352,740;  196,728;62385,559;50,09905
 702,10;31373,986;  159,941;62457,242;50,10497
 702,67;31413,783;  201,755;62523,328;50,08222
 703,24;31608,180;  192,819;62877,863;50,11620
 703,82;31594,025;  175,733;62693,301;50,25514
 704,39;31452,021;  175,147;62488,285;50,19307
 704,96;31724,268;  187,261;62935,871;50,25929
 705,53;31664,164;  168,875;62680,457;50,38313
 706,10;31547,510;  174,439;62622,746;50,23846
 706,68;31860,006;  174,953;63210,832;50,26511
 707,25;31753,803;  181,817;62991,965;50,26574
 707,82;31750,098;  174,530;63140,902;50,14672
 708,39;31849,145;  183,594;63178,887;50,26653
 708,96;31889,391;  192,558;63104,426;50,38291
 709,54;31844,186;  167,172;63101,359;50,33355
 710,11;31854,883;  164,386;63188,246;50,28333
 710,68;31966,328;  170,300;63161,934;50,47659
 711,25;32022,625;  191,514;63377,918;50,37652
 711,82;32171,121;  175,328;63770,703;50,31151
 712,39;32064,266;  158,142;63520,441;50,35506
 712,97;32200,613;  198,056;63571,676;50,49823
 713,54;32230,859;  195,369;63716,711;50,43264
 714,11;32183,455;  190,783;63761,699;50,32596
 714,68;32212,900;  179,047;63556,832;50,54429
 715,25;32279,697;  200,411;63722,871;50,50070
 715,82;32327,143;  182,575;63689,055;50,61620
 716,39;32190,439;  161,289;63727,391;50,38716
 716,97;32214,436;  172,503;63782,977;50,37210
 717,54;32148,381;  177,467;63620,715;50,39293
 718,11;32295,627;  181,281;63693,449;50,56408
 718,68;32288,473;  185,745;63487,336;50,71394
 719,25;32269,719;  182,158;63447,922;50,71868
 719,82;32361,115;  165,022;63584,355;50,76700
 720,39;32418,361;  155,686;63647,293;50,81408
 720,96;32489,008;  169,550;63670,980;50,89564
 721,53;32425,453;  158,664;63611,164;50,85188
 722,10;32388,250;  158,978;63405,551;50,95813
 722,68;32470,496;  174,042;63774,336;50,78035
 723,25;32387,092;  159,806;63420,672;50,94348
 723,82;32429,488;  175,520;63609,508;50,84651
 724,39;32378,484;  152,933;63316,094;51,01954
 724,96;32656,381;  170,347;63893,531;50,97993
 725,53;32567,326;  205,361;63735,867;50,93925
 726,10;32541,172;  184,075;63691,602;50,95002
 726,67;32414,219;  185,789;63381,738;50,99762
 727,24;32606,414;  172,853;63651,125;51,09396
 727,81;32584,561;  179,217;63591,309;51,10278
 728,38;32543,307;  180,681;63554,098;51,06656
 728,95;32412,254;  166,745;63304,980;51,07129
 729,52;32539,250;  159,509;63331,918;51,25614
 730,09;32529,645;  159,422;63361,152;51,21730
 730,66;32566,691;  185,636;63305,641;51,30078
 731,23;32490,938;  163,400;63391,625;51,12833
 731,80;32297,133;  163,264;63024,863;51,11844
 732,37;32475,379;  182,628;63191,148;51,25140
 732,94;32188,775;  154,142;62682,582;51,23210
 733,51;32205,072;  166,006;62726,871;51,21263
 734,08;32222,117;  167,270;62935,906;51,06826
 734,65;32244,064;  174,234;62831,641;51,18282
 735,22;32131,160;  159,348;62601,129;51,20260
 735,79;32171,205;  154,211;62467,965;51,38030
 736,36;32096,201;  152,725;62555,199;51,18944
 736,93;32167,348;  173,589;62533,184;51,30527
 737,50;32012,943;  165,053;62157,770;51,37360
 738,07;31973,891;  145,467;62179,156;51,30829
 738,64;31950,736;  175,981;62037,594;51,36425
 739,21;31903,682;  166,095;61903,379;51,40749
 739,78;31832,529;  157,459;61817,516;51,37049
 740,35;31697,324;  161,523;61718,051;51,23064
 740,92;31725,420;  142,486;61756,488;51,25934
 741,49;31691,768;  159,200;61538,574;51,37323
 742,06;31632,412;  133,714;61485,410;51,34120
 742,63;31546,559;  163,178;61256,145;51,36987
 743,20;31559,256;  173,842;61138,430;51,48138
 743,77;31430,701;  159,456;61038,867;51,36588
 744,33;31393,297;  139,420;60769,152;51,54876
 744,90;31288,494;  167,284;60757,637;51,36331
 745,47;31237,039;  150,948;60653,773;51,37957
 746,04;31101,436;  175,862;60310,809;51,42696
 746,61;31092,031;  174,975;60280,547;51,43792
 747,18;31063,277;  164,539;60356,133;51,33398
 747,75;31001,574;  174,703;60106,918;51,43623
 748,32;30778,971;  138,017;59724,805;51,42240
 748,89;30724,717;  167,581;59756,488;51,27991
 749,46;30640,361;  179,745;59428,477;51,41142
 750,02;30562,809;  173,459;59209,613;51,47583
 750,59;30479,955;  158,973;59140,848;51,40729
 751,16;30383,850;  168,837;58897,582;51,44842
 751,73;30345,797;  171,201;58802,570;51,46494
 752,30;30163,793;  152,764;58523,605;51,41442
 752,87;30074,438;  155,928;58168,590;51,57238
 753,44;29949,385;  139,892;58054,328;51,47161
 754,00;30015,080;  165,656;58244,063;51,39505
 754,57;29757,727;  146,820;57849,551;51,31630
 755,14;29718,672;  172,334;57840,535;51,23506
 755,71;29651,719;  168,598;57599,922;51,33631
 756,28;29511,115;  149,512;57348,508;51,33238
 756,85;29481,561;  168,826;57196,441;51,40095
 757,41;29220,656;  146,839;56769,930;51,34622
 757,98;29070,754;  177,703;56523,613;51,27799
 758,55;28935,949;  150,367;56315,852;51,25137
 759,12;29027,246;  154,831;56181,785;51,53308
 759,69;28743,641;  144,345;55729,922;51,45093
 760,25;28694,838;  179,909;55686,559;51,37210
 760,82;28465,633;  173,923;55126,594;51,48378
 761,39;28451,430;  167,237;55165,078;51,42782
 761,96;28361,375;  191,851;55051,266;51,34857
 762,53;28110,521;  155,965;54715,301;51,23698
 763,09;28068,318;  145,928;54554,336;51,31999
 763,66;27942,664;  155,842;54355,973;51,26708
 764,23;27768,760;  142,806;53940,008;51,35203
 764,80;27686,307;  143,670;53882,395;51,25287
 765,36;27421,152;  152,084;53305,730;51,30235
 765,93;27325,848;  132,498;53162,969;51,27873
 766,50;27159,645;  130,912;52778,555;51,33892
 767,07;27132,641;  166,526;52669,340;51,36128
 767,63;27034,037;  141,990;52735,477;51,13190
 768,20;26874,982;  146,204;52239,512;51,30943
 768,77;26751,029;  158,667;52024,797;51,27115
 769,34;26617,125;  171,581;51734,434;51,28798
 769,90;26618,070;  175,345;51800,719;51,22040
 770,47;26343,168;  152,609;51229,105;51,27712
 771,04;26159,414;  150,473;51017,391;51,13135
 771,61;26073,510;  164,037;50732,027;51,23690
 772,17;26047,105;  177,201;50772,563;51,13098
 772,74;25817,602;  156,615;50279,750;51,19589
 773,31;25714,498;  160,279;50136,633;51,13262
 773,87;25492,893;  139,492;49772,270;51,08197
 774,44;25365,039;  160,856;49424,805;51,16152
 775,01;25210,486;  152,170;49154,293;51,13721
 775,57;25072,482;  155,034;48818,527;51,20358
 776,14;24892,178;  154,748;48566,863;51,09760
 776,71;24805,523;  152,612;48283,551;51,22051
 777,27;24615,270;  149,326;47902,586;51,23408
 777,84;24465,365;  164,440;47638,672;51,18761
 778,41;24344,861;  141,704;47295,656;51,32795
 778,97;24121,908;  154,568;46907,844;51,26345
 779,54;23889,955;  132,081;46490,480;51,24826
 780,11;23803,951;  173,345;46311,164;51,21743
 780,67;23753,297;  151,759;46188,703;51,26652
 781,24;23665,043;  165,323;45920,789;51,35937
 781,81;23457,738;  135,387;45569,172;51,33262
 782,37;23371,035;  152,451;45391,109;51,32465
 782,94;23143,682;  123,365;45056,496;51,23239
 783,51;23104,928;  156,229;44885,031;51,30631
 784,07;22924,473;  151,443;44543,766;51,29948
 784,64;22764,170;  152,757;44219,102;51,31221
 785,20;22537,416;  148,020;43896,590;51,17743
 785,77;22492,611;  156,634;43810,227;51,16641
 786,34;22300,707;  150,798;43325,410;51,30309
 786,90;22242,053;  158,162;43147,648;51,37045
 787,47;22155,299;  175,126;42997,531;51,32867
 788,03;21917,195;  144,790;42502,418;51,40138
 788,60;21807,441;  147,654;42401,105;51,26158
 789,16;21698,238;  188,018;42150,289;51,26086
 789,73;21555,783;  121,682;41838,375;51,38015
 790,30;21504,080;  154,795;41587,414;51,52772
 790,86;21225,025;  171,209;41055,199;51,49648
 791,43;21067,322;  166,273;40857,734;51,36471
 791,99;20983,068;  170,287;40740,570;51,30056
 792,56;20823,664;  159,601;40478,457;51,25161
 793,12;20622,760;  161,465;40129,191;51,19454
 793,69;20570,057;  163,529;39907,027;51,34557
 794,26;20357,854;  131,543;39519,914;51,35097
 794,82;20371,998;  181,607;39490,102;51,36394
 795,39;20114,994;  154,271;39006,285;51,37629
 795,95;20038,541;  161,484;38757,922;51,49972
 796,52;19918,287;  127,448;38497,809;51,57845
 797,08;19749,934;  167,962;38259,543;51,40761
 797,65;19625,029;  156,276;37900,781;51,58036
 798,21;19395,176;  135,390;37569,266;51,45015
 798,78;19207,771;  133,854;37154,703;51,52210
 799,34;19234,268;  165,568;37107,836;51,61757
 799,91;19057,213;  160,732;36709,973;51,70143
 800,47;18809,809;  141,146;36444,258;51,42441
 801,04;18793,105;  150,960;36229,594;51,67087
 801,60;18676,451;  149,073;35918,383;51,79686
 802,17;18511,697;  166,287;35668,867;51,67346
 802,73;18339,645;  135,651;35365,805;51,67163
 803,30;18221,789;  127,815;35194,391;51,59892
 803,86;18119,637;  147,929;34970,824;51,60888
 804,42;17854,281;  151,143;34468,313;51,58683
 804,99;17774,428;  163,657;34378,695;51,47085
 805,55;17590,125;  166,671;33920,383;51,61937
 806,12;17476,770;  158,935;33741,270;51,56829
 806,68;17335,566;  158,048;33472,953;51,56106
 807,25;17072,912;  135,562;33078,391;51,41438
 807,81;16985,309;  154,876;32978,727;51,27501
 808,38;16986,955;  177,790;32851,563;51,44544
 808,94;16878,451;  165,804;32601,648;51,52524
 809,50;16795,197;  150,968;32451,385;51,52946
 810,07;16771,242;  160,782;32394,871;51,53073
 810,63;16651,139;  150,346;32188,355;51,50380
 811,20;16707,086;  160,210;32169,441;51,69408
 811,76;16609,381;  154,624;32069,629;51,55806
 812,32;16676,578;  171,687;32144,863;51,62105
 812,89;16668,273;  156,051;32137,100;51,63127
 813,45;16555,869;  146,265;32035,887;51,45751
 814,02;16574,166;  155,729;31994,521;51,56740
 814,58;16544,111;  150,843;31923,508;51,59551
 815,14;16570,658;  182,807;31958,895;51,57290
 815,71;16439,754;  161,771;31756,879;51,52058
 816,27;16306,550;  173,685;31621,615;51,30024
 816,83;16310,346;  166,149;31424,551;51,64754
 817,40;16253,842;  177,913;31265,637;51,71150
 817,96;16082,888;  153,926;31086,074;51,49646
 818,52;16017,884;  166,490;30841,260;51,67567
 819,09;15891,431;  177,904;30611,645;51,63193
 819,65;15722,876;  168,118;30267,182;51,67854
 820,21;15644,622;  155,982;30202,018;51,54970
 820,78;15559,368;  170,896;29879,254;51,79846
 821,34;15366,515;  155,410;29646,090;51,57936
 821,90;15395,461;  171,974;29574,875;51,77546
 822,47;15178,257;  148,388;29264,111;51,62114
 823,03;15075,652;  174,152;28970,896;51,74717
 823,59;14946,949;  187,265;28759,934;51,65665
 824,16;14838,595;  185,979;28534,918;51,68665
 824,72;14776,791;  176,693;28421,055;51,69208
 825,28;14661,438;  173,707;28149,791;51,78613
 825,85;14504,833;  146,721;27840,176;51,84659
 826,41;14497,430;  200,335;27707,361;51,97616
 826,97;14361,176;  178,399;27486,697;51,93578
 827,53;14281,521;  183,163;27238,385;52,10957
 828,10;14132,218;  176,977;27108,320;51,81784
 828,66;14044,863;  164,590;26860,057;51,99487
 829,22;13883,910;  167,704;26472,492;52,14338
 829,78;13773,406;  159,018;26381,777;51,91821
 830,35;13741,052;  162,332;26178,863;52,19266
 830,91;13665,048;  154,046;25990,400;52,29454
 831,47;13567,694;  173,310;25873,586;52,11767
 832,03;13436,690;  171,124;25704,672;51,95348
 832,60;13291,536;  151,138;25476,107;51,88712
 833,16;13290,732;  187,152;25303,844;52,17081
 833,72;13184,028;  162,966;25183,430;52,04165
 834,28;13045,124;  166,279;24910,166;52,04859
 834,85;13004,671;  169,093;24800,252;52,11114
 835,41;12912,116;  159,657;24715,588;51,93230
 835,97;12860,463;  153,121;24489,322;52,21580
 836,53;12712,409;  176,235;24321,359;51,92011
 837,09;12671,604;  155,099;24073,395;52,33026
 837,66;12604,751;  175,213;23946,080;52,28896
 838,22;12498,497;  172,627;23778,666;52,21490
 838,78;12357,793;  140,141;23623,002;52,02795
 839,34;12320,789;  165,505;23439,189;52,22759
 839,90;12278,436;  171,268;23353,975;52,22499
 840,47;12256,231;  181,882;23243,311;52,35733
 841,03;12101,428;  167,746;23005,596;52,25396
 841,59;12054,323;  186,010;22929,533;52,18327
 842,15;11936,620;  155,424;22747,268;52,14801
 842,71;11839,516;  153,538;22580,305;52,10728
 843,27;11798,062;  146,652;22512,090;52,09560
 843,83;11708,908;  165,816;22300,076;52,15034
 844,40;11641,054;  153,830;22213,361;52,07374
 844,96;11536,800;  168,943;21999,848;52,07231
 845,52;11478,046;  155,607;21875,684;52,12891
 846,08;11393,143;  138,421;21688,471;52,22597
 846,64;11350,688;  184,835;21663,756;51,98517
 847,20;11270,834;  149,449;21399,492;52,33582
 847,76;11198,181;  152,313;21309,328;52,20901
 848,33;11130,627;  138,977;21167,514;52,27016
 848,89;11151,223;  158,191;21142,150;52,38779
 849,45;11001,969;  136,405;20875,635;52,39136
 850,01;10998,465;  151,769;20843,172;52,42127
 850,57;10965,661;  150,382;20739,607;52,52883
 851,13;10885,857;  139,746;20594,893;52,53500
 851,69;10775,903;  134,710;20424,580;52,44584
 852,25;10723,699;  140,574;20273,766;52,56556
 852,81;10673,795;  135,488;20197,650;52,52827
 853,37;10571,491;  135,102;20079,938;52,32627
 853,93;10574,537;  161,016;19988,973;52,51939
 854,49;10568,233;  170,030;19971,359;52,51265
 855,05;10414,229;  119,494;19657,295;52,69137
 855,62;10340,075;  148,758;19514,230;52,62623
 856,18;10282,021;  118,521;19440,268;52,60135
 856,74;10285,567;  154,735;19354,803;52,76457
 857,30;10195,964;  134,949;19188,789;52,80308
 857,86;10137,560;  182,363;19187,625;52,38126
 858,42;10084,606;  127,677;19033,410;52,66619
 858,98;10090,702;  152,391;19023,096;52,66529
 859,54; 9990,898;  115,655;18921,682;52,51106
 860,10; 9973,845;  156,819;18803,719;52,64696
 860,66; 9881,240;  162,283;18645,904;52,58146
 861,22; 9754,187;  124,296;18487,490;52,44126
 861,78; 9779,883;  165,760;18485,727;52,47893
 862,34; 9735,229;  162,174;18387,963;52,52477
 862,90; 9694,425;  171,188;18331,648;52,43940
 863,46; 9638,171;  143,052;18132,434;52,78180
 864,02; 9561,617;  135,166;18065,369;52,57303
 864,58; 9464,513;  118,730;17903,006;52,55082
 865,14; 9486,209;  159,794;17937,191;52,46221
 865,70; 9419,955;  142,358;17796,277;52,55262
 866,26; 9354,401;  137,522;17674,914;52,55559
 866,82; 9373,897;  170,435;17664,400;52,60935
 867,38; 9312,793;  119,699;17550,236;52,74131
 867,93; 9251,489;  162,463;17409,422;52,69930
 868,49; 9194,735;  158,027;17313,357;52,67580
 869,05; 9149,182;  145,791;17276,844;52,55597
 869,61; 9072,328;  128,255;17134,279;52,59356
 870,17; 8962,874;  112,619;16925,965;52,63827
 870,73; 8985,270;  143,733;16956,602;52,58791
 871,29; 8967,166;  150,647;16869,986;52,73246
 871,85; 8907,462;  115,911;16770,322;52,78812
 872,41; 8877,658;  154,874;16690,859;52,75031
 872,97; 8798,854;  131,938;16598,045;52,63488
 873,53; 8826,500;  161,702;16623,131;52,63697
 874,09; 8766,746;  150,616;16490,117;52,73190
 874,65; 8738,992;  146,280;16471,252;52,63539
 875,20; 8704,343;  166,880;16309,053;52,88918
 875,76; 8591,192;  128,880;16160,702;52,78447
 876,32; 8534,492;  145,780;16047,003;52,75514
 876,88; 8549,593;  152,430;16089,452;52,68966
 877,44; 8528,742;  167,030;15985,853;52,85926
 878,00; 8423,442;  127,280;15792,503;52,95911
 878,56; 8382,393;  128,680;15788,803;52,70529
 879,12; 8367,593;  162,430;15636,303;53,02592
 879,67; 8300,143;  138,130;15516,652;53,07410
 880,23; 8237,293;  134,730;15420,303;53,00791
 880,79; 8237,442;  157,880;15433,952;52,89031
 881,35; 8213,393;  152,780;15340,402;53,07356
 881,91; 8205,143;  147,780;15362,553;52,95750
 882,47; 8225,843;  169,880;15345,503;53,08489
 883,02; 8150,692;  159,730;15236,253;53,00269
 883,58; 8193,942;  154,080;15215,402;53,38085
 884,14; 8157,692;  150,080;15242,853;53,05594
 884,70; 8161,292;  137,930;15216,553;53,21018
 885,26; 8166,592;  144,280;15200,452;53,28255
 885,82; 8132,342;  147,580;15156,303;53,20081
 886,37; 8145,393;  148,130;15166,253;53,25075
 886,93; 8147,942;  140,030;15188,103;53,21554
 887,49; 8115,442;  140,680;15123,003;53,22781
 888,05; 8121,743;  148,680;15140,452;53,18292
 888,60; 8143,393;  130,230;15185,603;53,22461
 889,16; 8132,743;  157,280;15144,553;53,21490
 889,72; 8191,743;  152,080;15211,303;53,38697
 890,28; 8194,442;  150,330;15162,952;53,58233
 890,84; 8191,893;  141,480;15234,402;53,33899
 891,39; 8149,643;  144,830;15184,003;53,22641
 891,95; 8195,192;  141,080;15198,103;53,49074
 892,51; 8116,092;  112,280;15108,452;53,37237
 893,07; 8142,342;  151,480;15169,202;53,20955
 893,62; 8157,143;  171,780;15080,003;53,56348
 894,18; 8092,042;  160,480;14982,103;53,51346
 894,74; 8070,592;  141,030;14981,202;53,43309
 895,29; 8065,592;  174,580;14907,103;53,56185
 895,85; 7988,592;  137,130;14806,702;53,52209
 896,41; 7968,042;  150,630;14764,402;53,49346
 896,97; 7889,192;  147,330;14608,152;53,53681
 897,52; 7850,542;  148,830;14496,402;53,67955
 898,08; 7769,342;  167,030;14408,503;53,38150
 898,64; 7732,592;  161,930;14347,452;53,36894
 899,19; 7611,842;  141,580;14094,902;53,53752
 899,75; 7563,592;  158,330;14036,353;53,35964
 900,31; 7513,942;  150,280;13936,353;53,41378
 900,86; 7409,042;  149,830;13784,652;53,24024
 901,42; 7374,592;  161,930;13667,902;53,40350
 901,98; 7284,993;  137,530;13514,503;53,43109
 902,53; 7222,743;  141,530;13428,702;53,29360
 903,09; 7178,042;  153,030;13291,103;53,47065
 903,65; 7130,692;  140,880;13145,753;53,74764
 904,20; 7074,743;  134,180;13096,503;53,54413
 904,76; 7025,792;  148,530;12968,103;53,64658
 905,32; 6931,592;  148,680;12858,952;53,36559
 905,87; 6909,042;  135,930;12759,452;53,65470
 906,43; 6852,942;  140,930;12610,003;53,82928
 906,99; 6821,342;  164,880;12574,452;53,63974
 907,54; 6711,342;  137,330;12388,652;53,65961
 908,10; 6734,743;  159,680;12366,952;53,86185
 908,66; 6655,442;  144,730;12281,053;53,64650
 909,21; 6629,092;  158,180;12213,103;53,67859
 909,77; 6528,743;  116,730;12004,452;53,93811
 910,32; 6485,893;  118,530;12000,353;53,58911
 910,88; 6455,192;  135,830;11897,652;53,72775
 911,44; 6370,292;  121,580;11809,353;53,46367
 911,99; 6380,643;  129,930;11702,803;54,01176
 912,55; 6317,143;   97,180;11638,952;53,89088
 913,10; 6336,292;  150,980;11587,003;54,08622
 913,66; 6263,493;  140,030;11489,303;53,95467
 914,21; 6218,942;  128,780;11377,902;54,13900
 914,77; 6193,292;  108,130;11296,003;54,39070
 915,33; 6113,243;  104,430;11222,853;54,04375
 915,88; 6131,792;  119,880;11198,503;54,26588
 916,44; 6067,493;  122,880;11108,353;54,11340
 916,99; 6034,042;  142,930;11062,152;53,95176
 917,55; 6021,893;  135,430;10974,652;54,30706
 918,10; 5965,493;  134,680;10843,603;54,44817
 918,66; 5917,442;  140,630;10780,652;54,29324
 919,21; 5849,342;  122,430;10736,053;53,95813
 919,77; 5809,493;  115,130;10675,952;53,91969
 920,32; 5791,192;  125,380;10572,503;54,23323
 920,88; 5768,893;  117,880;10521,152;54,31957
 921,43; 5763,942;  156,380;10477,603;54,33041
 921,99; 5663,393;  133,880;10375,452;53,99086
 922,54; 5641,042;  128,830;10288,553;54,25554
 923,10; 5594,092;  110,380;10229,202;54,19319
 923,65; 5606,442;  135,180;10239,753;54,14640
 924,21; 5593,243;  138,730;10163,303;54,41142
 924,76; 5499,842;  118,080;10039,452;54,24413
 925,32; 5475,393;  117,930;10045,402;53,96603
 925,87; 5496,743;  153,630;10019,853;54,15561
 926,43; 5395,592;  120,030; 9917,803;53,84451
 926,98; 5444,493;  163,780; 9882,652;54,33462
 927,54; 5348,342;  125,330; 9766,503;54,17403
 928,09; 5335,643;  132,130; 9684,253;54,47493
 928,65; 5292,092;  111,780; 9628,303;54,43493
 929,20; 5262,893;  143,530; 9574,853;54,28043
 929,75; 5241,692;  142,280; 9545,702;54,22933
 930,31; 5202,792;  151,130; 9446,902;54,34366
 930,86; 5180,292;  160,730; 9433,053;54,13490
 931,42; 5147,643;  139,730; 9298,353;54,67976
 931,97; 5077,192;  116,080; 9204,103;54,58957
 932,52; 5120,643;  154,080; 9226,303;54,74472
 933,08; 5027,643;  116,280; 9126,652;54,50788
 933,63; 4974,842;  134,480; 9048,303;54,30176
 934,19; 4943,792;  118,930; 9036,003;54,10814
 934,74; 4941,243;  120,580; 9004,253;54,26430
 935,29; 4883,643;  130,530; 8926,652;54,03645
 935,85; 4903,842;  153,330; 8863,053;54,54264
 936,40; 4863,893;  161,430; 8803,603;54,41297
 936,96; 4807,042;  156,230; 8732,103;54,23136
 937,51; 4786,743;  142,780; 8640,603;54,64885
 938,06; 4730,592;  131,430; 8596,702;54,32976
 938,62; 4696,842;  140,380; 8494,803;54,53952
 939,17; 4693,592;  146,480; 8473,003;54,60998
 939,72; 4612,692;  102,230; 8377,003;54,50859
 940,28; 4643,143;  158,230; 8400,402;54,41421
 940,83; 4545,292;  121,730; 8291,902;54,14283
 941,38; 4561,143;  119,230; 8257,902;54,57785
 941,94; 4513,243;  137,580; 8195,003;54,30598
 942,49; 4469,493;  115,980; 8136,152;54,28203
 943,04; 4465,993;  136,330; 8080,152;54,50352
 943,60; 4430,342;  122,680; 7991,703;54,74202
 944,15; 4400,393;  132,080; 7958,652;54,53617
 944,70; 4374,342;  130,580; 7905,502;54,58270
 945,26; 4317,493;  122,280; 7824,353;54,46862
 945,81; 4300,042;  116,730; 7774,152;54,63082
 946,36; 4270,342;  110,380; 7708,953;54,74663
 946,92; 4227,192;  113,030; 7638,353;54,67091
 947,47; 4217,893;  106,380; 7555,603;55,19385
 948,02; 4170,442;  107,730; 7498,002;54,97378
 948,57; 4170,042;  140,380; 7501,502;54,74250
 949,13; 4152,092;  127,930; 7432,303;55,09251
 949,68; 4122,592;  139,180; 7380,803;55,00718
 950,23; 4083,893;  147,430; 7331,853;54,79164
 950,78; 4042,792;  124,580; 7236,453;55,09396
 951,34; 4031,242;  138,030; 7228,053;54,91114
 951,89; 3980,792;  123,330; 7136,152;55,00585
 952,44; 3985,292;  138,880; 7114,652;55,13959
 952,99; 3913,093;  131,380; 7031,453;54,80685
 953,55; 3896,643;  128,330; 7010,752;54,75271
 954,10; 3848,692;  113,080; 6937,953;54,73527
 954,65; 3841,792;  131,080; 6898,103;54,83523
 955,20; 3792,742;  108,730; 6835,803;54,76397
 955,76; 3799,593;  139,930; 6838,152;54,63633
 956,31; 3763,593;  130,330; 6799,252;54,48050
 956,86; 3726,742;  118,180; 6679,603;54,99665
 957,41; 3689,343;  129,730; 6646,603;54,62148
 957,96; 3663,343;  121,880; 6589,053;54,76060
 958,52; 3665,893;  139,730; 6570,803;54,83008
 959,07; 3598,492;  120,280; 6483,152;54,66419
 959,62; 3581,643;  120,480; 6454,402;54,64485
 960,17; 3583,593;  135,380; 6437,303;54,71683
 960,72; 3561,242;  133,680; 6391,103;54,77595
 961,27; 3563,492;  178,180; 6380,152;54,58445
 961,83; 3515,742;  136,280; 6282,453;54,98483
 962,38; 3474,742;  147,380; 6228,902;54,71266
 962,93; 3441,492;  118,680; 6161,902;54,98412
 963,48; 3408,042;  112,080; 6084,303;55,18820
 964,03; 3374,393;   97,630; 6059,053;54,96612
 964,58; 3364,192;  111,630; 6026,953;54,98538
 965,13; 3360,143;  125,180; 5985,252;55,20346
 965,69; 3309,242;  117,430; 5916,252;55,04242
 966,24; 3333,893;  120,730; 5891,652;55,67849
 966,79; 3287,292;  131,030; 5857,203;55,11993
 967,34; 3258,192;  130,130; 5804,803;55,12322
 967,89; 3240,393;  138,580; 5761,853;55,16027
 968,44; 3224,192;  142,780; 5728,803;55,16290
 968,99; 3204,292;  151,580; 5656,553;55,45373
 969,54; 3169,742;  128,430; 5644,402;55,13647
 970,09; 3166,942;  138,080; 5560,652;55,85656
 970,64; 3137,942;  136,080; 5550,853;55,43838
 971,20; 3146,942;  155,980; 5521,002;55,74930
 971,75; 3063,292;  117,230; 5423,402;55,52142
 972,30; 3066,893;  143,880; 5402,752;55,58250
 972,85; 3028,643;  122,230; 5334,803;55,75774
 973,40; 3034,542;  154,730; 5349,203;55,43994
 973,95; 2972,442;  119,030; 5249,603;55,61587
 974,50; 2957,292;  135,530; 5211,353;55,59222
 975,05; 2919,792;  130,830; 5203,703;54,97797
 975,60; 2941,492;  162,930; 5208,603;55,06823
 976,15; 2863,742;  114,080; 5081,303;55,35613
 976,70; 2889,192;  158,880; 5099,002;55,26811
 977,25; 2820,792;  129,830; 5003,603;55,21313
 977,80; 2806,942;  125,130; 4984,553;55,18788
 978,35; 2820,093;  151,430; 4943,053;55,69434
 978,90; 2788,542;  154,180; 4933,703;55,11769
 979,45; 2801,042;  165,330; 4890,402;55,78142
 980,00; 2745,593;  141,780; 4845,053;55,36172
 980,55; 2718,792;  143,580; 4739,652;56,03072
 981,10; 2700,192;  139,380; 4743,002;55,62603
 981,65; 2660,942;  145,780; 4653,803;55,79303
 982,20; 2652,643;  149,830; 4645,803;55,66788
 982,75; 2649,143;  145,130; 4632,053;55,80690
 983,30; 2606,492;  133,780; 4565,953;55,79007
 983,85; 2595,242;  156,280; 4569,103;55,26990
 984,40; 2611,742;  188,930; 4559,853;55,43023
 984,95; 2521,593;  144,680; 4450,152;55,20678
 985,50; 2527,242;  154,730; 4438,252;55,38695
 986,05; 2537,942;  165,880; 4405,603;55,94853
 986,60; 2540,242;  183,630; 4408,103;55,78477
 987,15; 2445,942;  135,230; 4298,953;55,49631
 987,70; 2406,042;  133,530; 4261,353;55,05354
 988,25; 2435,542;  155,980; 4220,902;56,07887
 988,80; 2407,893;  159,780; 4171,853;56,03370
 989,34; 2399,893;  178,630; 4193,553;55,32516
 989,89; 2344,893;  146,780; 4075,502;55,94981
 990,44; 2356,292;  158,280; 4061,903;56,30699
 990,99; 2386,942;  201,580; 4085,153;56,27196
 991,54; 2305,992;  159,330; 3986,103;56,09590
 992,09; 2316,992;  187,680; 3992,653;55,96131
 992,64; 2255,542;  144,030; 3879,302;56,52901
 993,19; 2265,843;  182,580; 3897,853;56,07294
 993,74; 2208,042;  160,730; 3864,302;55,27940
 994,28; 2189,442;  151,980; 3805,202;55,77165
 994,83; 2197,343;  174,180; 3786,903;56,00105
 995,38; 2193,343;  157,930; 3746,103;56,72560
 995,93; 2150,192;  167,680; 3711,752;55,93882
 996,48; 2143,093;  157,030; 3666,153;56,59713
 997,03; 2118,492;  183,230; 3678,452;55,36879
 997,58; 2088,792;  172,480; 3601,802;55,88021
 998,12; 2052,893;  150,780; 3551,702;55,92931
 998,67; 2058,742;  179,180; 3547,002;55,80943
 999,22; 2015,392;  164,230; 3477,552;55,87028
 999,77; 2009,693;  161,480; 3460,103;56,02983
1000,32; 1990,693;  181,580; 3416,452;55,92531
1000,87; 1931,642;  132,180; 3349,452;55,93131
1001,41; 1957,843;  163,030; 3376,252;55,85709
1001,96; 1918,943;  155,530; 3308,153;55,93478
1002,51; 1926,792;  179,330; 3319,002;55,65748
1003,06; 1905,642;  180,780; 3284,153;55,58026
1003,61; 1865,993;  158,980; 3225,452;55,66698
1004,15; 1884,792;  184,430; 3225,202;55,91877
1004,70; 1851,792;  158,780; 3168,802;56,24584
1005,25; 1829,142;  179,080; 3129,403;55,92820
1005,80; 1778,743;  154,480; 3078,202;55,55461
1006,35; 1781,093;  158,280; 3047,952;56,15905
1006,89; 1772,493;  155,230; 3024,202;56,37080
1007,44; 1767,792;  157,930; 3003,653;56,57131
1007,99; 1748,243;  158,830; 2999,802;55,94607
1008,54; 1738,343;  157,380; 2974,302;56,12375
1009,08; 1733,443;  157,230; 2958,403;56,26974
1009,63; 1702,493;  160,330; 2951,302;55,25538
1010,18; 1707,392;  142,580; 2927,502;56,18873
1010,72; 1721,943;  190,180; 2951,302;55,47608
1011,27; 1667,892;  128,280; 2875,202;56,04863
1011,82; 1717,093;  176,430; 2930,153;55,94836
1012,37; 1713,843;  175,830; 2936,103;55,71959
1012,91; 1716,042;  190,380; 2932,452;55,63903
1013,46; 1684,943;  154,280; 2878,802;56,18095
1014,01; 1702,243;  178,280; 2871,952;56,57565
1014,55; 1660,142;  158,580; 2842,103;55,95490
1015,10; 1628,993;  142,480; 2780,752;56,34416
1015,65; 1601,642;  160,280; 2742,552;55,81760
1016,19; 1562,892;  148,030; 2667,552;56,15598
1016,74; 1528,542;  145,330; 2596,502;56,43065
1017,29; 1514,142;  166,630; 2571,502;56,03260
1017,84; 1471,042;  167,580; 2501,952;55,83781
1018,38; 1434,593;  161,730; 2427,403;56,18034
1018,93; 1406,542;  165,980; 2364,653;56,42325
1019,47; 1420,943;  189,880; 2359,502;56,74086
1020,02; 1369,843;  169,580; 2320,202;55,81001
1020,57; 1308,943;  157,680; 2254,752;54,89856
1021,11; 1303,542;  157,930; 2225,603;55,40590
1021,66; 1293,843;  159,530; 2178,552;56,18127
1022,21; 1253,343;  163,230; 2143,052;55,06112
1022,75; 1268,693;  160,380; 2118,153;56,61089
1023,30; 1213,292;  141,780; 2065,752;55,69271
1023,84; 1207,993;  160,680; 2041,203;55,69264
1024,39; 1200,193;  160,380; 2028,353;55,66530
1024,94; 1159,443;  152,030; 1970,302;55,40492
1025,48; 1150,642;  129,580; 1929,703;56,72183
1026,03; 1147,593;  162,480; 1915,103;56,20791
1026,57; 1148,493;  170,630; 1941,703;55,21302
1027,12; 1146,343;  165,530; 1907,502;56,30471
1027,67; 1120,993;  155,730; 1867,052;56,40448
1028,21; 1100,243;  165,580; 1835,402;55,97377
1028,76; 1066,243;  149,480; 1808,902;55,24588
1029,30; 1074,493;  165,380; 1804,502;55,46337
1029,85; 1001,542;  102,280; 1708,552;55,98443
1030,39; 1038,243;  153,230; 1739,552;55,79020
1030,94; 1043,493;  155,180; 1739,603;56,06538
1031,49; 1003,693;  147,930; 1673,203;56,10555
1032,03; 1009,042;  145,580; 1653,152;57,27502
1032,58; 1018,693;  177,130; 1662,353;56,66238
1033,12;  981,893;  144,380; 1619,752;56,76618
1033,67;  954,492;  139,580; 1596,103;55,94919
1034,21;  973,893;  165,080; 1593,652;56,61684
1034,76;  934,843;  142,080; 1546,103;56,46366
1035,30;  938,242;  153,980; 1525,453;57,18397
1035,85;  912,343;  139,380; 1504,502;56,62221
1036,39;  923,693;  163,330; 1517,152;56,16412
1036,94;  899,242;  159,680; 1478,703;56,06898
1037,48;  880,542;  160,630; 1452,953;55,70687
1038,03;  879,893;  158,230; 1437,802;56,39872
1038,57;  828,943;  121,730; 1387,752;55,86098
1039,12;  882,393;  167,880; 1421,652;56,98901
1039,66;  841,893;  159,480; 1387,103;55,58814
1040,21;  853,242;  180,580; 1378,353;56,15945
1040,75;  830,593;  164,680; 1355,552;55,91804
1041,29;  830,693;  172,080; 1347,703;56,02245
1041,84;  787,893;  141,630; 1298,603;55,85807
1042,38;  793,792;  151,680; 1294,203;56,20130
1042,93;  779,393;  159,630; 1290,652;54,79666
1043,47;  793,943;  174,280; 1259,502;57,10005
1044,02;  772,893;  166,980; 1243,953;56,26072
1044,56;  750,492;  145,080; 1196,802;57,56390
1045,10;  719,992;  135,480; 1181,603;55,87419
1045,65;  741,143;  155,530; 1174,703;57,45961
1046,19;  721,193;  146,280; 1150,552;57,24666
1046,74;  718,843;  163,030; 1154,603;56,05364
1047,28;  712,042;  166,730; 1146,902;55,63434
1047,82;  714,242;  154,930; 1109,402;58,59912
1048,37;  680,643;  155,380; 1097,402;55,75902
1048,91;  674,992;  150,730; 1068,902;57,09848
1049,46;  671,292;  164,780; 1076,802;55,53728
1050,00;  654,393;  143,130; 1051,203;56,30195
1050,54;  641,492;  144,880; 1010,602;57,36394
1051,09;  654,143;  166,180; 1037,552;55,99930
1051,63;  667,193;  173,180; 1039,353;57,03396
1052,17;  612,093;  132,980;  981,052;56,49429
1052,72;  611,093;  146,930;  971,352;56,30154
1053,26;  621,393;  161,030;  971,753;56,78423
1053,80;  617,443;  164,480;  974,802;55,89904
1054,35;  594,193;  144,630;  944,003;56,23943
1054,89;  634,792;  181,380;  977,203;56,97407
1055,43;  581,143;  147,180;  915,852;56,45610
1055,98;  593,393;  154,330;  911,203;58,01010
1056,52;  568,893;  151,280;  897,102;55,99355
1057,06;  580,042;  165,030;  899,852;56,47792
1057,61;  547,742;  131,080;  849,302;58,01301
1058,15;  568,093;  166,230;  864,903;57,51801
1058,69;  566,542;  157,980;  850,552;58,99202
1059,24;  531,593;  143,030;  845,653;55,30175
1059,78;  535,542;  140,580;  835,003;56,87639
1060,32;  545,193;  169,280;  835,153;56,45412
1060,86;  518,742;  144,730;  792,953;57,69816
1061,41;  524,042;  141,280;  802,753;57,86521
1061,95;  518,443;  157,980;  783,953;57,58440
1062,49;  501,492;  152,780;  777,153;55,85007
1063,03;  516,143;  165,430;  769,703;58,03880
1063,58;  495,092;  150,880;  752,802;57,18552
1064,12;  501,992;  158,430;  758,503;57,25350
1064,66;  474,943;  140,880;  725,653;57,12691
1065,20;  477,092;  143,280;  717,253;58,15827
1065,75;  462,242;  140,430;  717,302;55,78572
1066,29;  449,793;  136,930;  704,203;55,15207
1066,83;  490,892;  174,180;  727,102;57,27973
1067,37;  480,992;  171,830;  712,802;57,14939
1067,91;  481,992;  167,630;  696,253;59,46824
1068,46;  440,992;  146,830;  673,052;55,90078
1069,00;  438,592;  144,480;  669,052;56,06708
1069,54;  475,342;  181,880;  700,653;56,56863
1070,08;  415,992;  127,280;  627,453;57,72258
1070,62;  430,492;  141,580;  635,153;58,53496
1071,17;  457,543;  173,480;  668,403;57,39535
1071,71;  430,742;  152,780;  627,253;58,58348
1072,25;  422,943;  149,630;  632,753;56,57209
1072,79;  427,642;  162,130;  639,852;55,57881
1073,33;  431,693;  161,730;  631,003;57,52788
1073,87;  449,742;  178,230;  637,153;59,16303
1074,41;  421,842;  159,180;  620,052;56,99245
1074,96;  404,793;  158,380;  607,903;54,81650
1075,50;  439,943;  181,430;  631,802;57,39971
1076,04;  399,693;  157,680;  588,602;56,16150
1076,58;  413,092;  163,580;  591,802;58,26702
1077,12;  406,092;  162,130;  585,802;57,58280
1077,66;  400,742;  166,730;  579,453;56,69972
1078,20;  427,742;  192,080;  601,302;57,58786
1078,74;  377,293;  152,030;  555,003;55,90022
1079,29;  413,043;  177,530;  579,352;58,61108
1079,83;  389,592;  159,130;  551,003;58,81058
1080,37;  425,193;  197,380;  580,802;59,41553
1080,91;  385,793;  163,380;  557,503;56,43233
1081,45;  372,043;  160,880;  547,552;54,61017
1081,99;  367,193;  147,380;  525,352;58,15569
1082,53;  391,592;  171,730;  551,552;57,88559
1083,07;  363,293;  147,230;  504,103;60,54333
1083,61;  361,543;  156,830;  514,953;57,16270
1084,15;  360,242;  159,680;  520,052;55,65422
1084,69;  381,193;  179,080;  531,302;57,38206
1085,23;  360,242;  162,580;  511,003;56,73069
1085,77;  401,793;  208,230;  551,753;56,34639
1086,31;  367,492;  177,980;  516,852;55,92443
1086,85;  374,392;  176,080;  516,453;58,26337
1087,39;  349,092;  157,030;  504,203;55,32192
1087,93;  348,142;  172,630;  495,603;54,34286
1088,47;  360,592;  172,930;  499,052;57,54356
1089,02;  337,443;  153,530;  476,552;56,93489
1089,56;  337,242;  158,780;  476,802;56,11631
1090,09;  344,242;  173,030;  499,052;52,51555
1090,63;  350,492;  176,130;  493,853;54,87886
1091,17;  341,892;  155,730;  472,552;58,75924
1091,71;  337,543;  167,980;  468,853;56,35693
1092,25;  351,293;  173,980;  479,953;57,95047
1092,79;  355,242;  184,080;  482,603;57,33654
1093,33;  327,142;  159,080;  453,402;57,10147
1093,87;  328,092;  153,930;  452,302;58,37083
1094,41;  346,392;  180,680;  470,203;57,23648
1094,95;  320,642;  150,980;  441,703;58,35891
1095,49;  338,642;  175,980;  455,453;58,20339
1096,03;  333,443;  180,080;  452,753;56,24421
1096,57;  335,892;  184,880;  453,853;56,14421
1097,11;  327,793;  178,480;  450,302;54,93015
1097,65;  332,242;  182,080;  450,453;55,95301
1098,19;  300,092;  163,530;  419,603;53,32962
1098,73;  348,543;  201,330;  462,703;56,32287
1099,27;  310,592;  158,430;  423,503;57,40411
1099,81;  311,642;  163,980;  422,003;57,22853
1100,34;  332,793;  188,880;  445,552;56,06854

